freq,psd_x,psd_y,psd_z,psd_xyz
0.0,2.417e+02,8.576e+01,2.777e+02,6.052e+02
1.6,3.743e+02,1.272e+02,5.332e+02,1.035e+03
3.1,2.747e+02,1.072e+02,5.611e+02,9.430e+02
4.7,6.198e+02,1.041e+02,5.783e+02,1.302e+03
6.3,1.517e+03,1.028e+02,5.820e+02,2.202e+03
7.8,2.300e+03,1.111e+02,5.881e+02,2.999e+03
9.4,3.211e+03,1.132e+02,5.788e+02,3.903e+03
10.9,4.367e+03,1.139e+02,5.645e+02,5.046e+03
12.5,5.734e+03,1.183e+02,6.098e+02,6.462e+03
14.1,7.416e+03,1.406e+02,5.407e+02,8.097e+03
15.6,8.081e+03,1.647e+02,5.418e+02,8.788e+03
17.2,9.278e+03,1.988e+02,6.177e+02,1.009e+04
18.8,1.192e+04,2.790e+02,6.844e+02,1.288e+04
20.3,1.467e+04,3.826e+02,8.181e+02,1.587e+04
21.9,1.694e+04,4.921e+02,9.537e+02,1.839e+04
23.5,2.052e+04,1.536e+03,1.590e+03,2.364e+04
25.0,2.471e+04,3.288e+03,2.416e+03,3.041e+04
26.6,2.481e+04,1.549e+03,1.413e+03,2.777e+04
28.1,2.572e+04,1.032e+03,1.185e+03,2.794e+04
29.7,2.876e+04,1.595e+03,1.543e+03,3.190e+04
31.3,3.753e+04,2.754e+03,2.165e+03,4.245e+04
32.8,5.343e+04,1.016e+04,4.672e+03,6.826e+04
34.4,6.825e+04,2.271e+04,8.454e+03,9.942e+04
36.0,7.601e+04,2.806e+04,1.031e+04,1.144e+05
37.5,7.802e+04,3.017e+04,1.064e+04,1.188e+05
39.1,7.950e+04,3.256e+04,1.092e+04,1.230e+05
40.7,8.938e+04,3.992e+04,1.645e+04,1.458e+05
42.2,9.733e+04,5.255e+04,2.059e+04,1.705e+05
43.8,1.066e+05,5.888e+04,2.179e+04,1.872e+05
45.3,1.154e+05,5.995e+04,2.528e+04,2.006e+05
46.9,1.171e+05,5.439e+04,2.877e+04,2.003e+05
48.5,1.092e+05,4.706e+04,2.773e+04,1.840e+05
50.0,1.022e+05,4.942e+04,2.603e+04,1.776e+05
51.6,1.053e+05,6.437e+04,2.734e+04,1.970e+05
53.2,1.146e+05,8.139e+04,3.216e+04,2.282e+05
54.7,1.322e+05,7.863e+04,4.259e+04,2.534e+05
56.3,1.342e+05,5.375e+04,5.320e+04,2.411e+05
57.8,1.190e+05,3.414e+04,5.625e+04,2.094e+05
59.4,1.008e+05,2.338e+04,5.831e+04,1.824e+05
61.0,8.568e+04,1.601e+04,6.118e+04,1.629e+05
62.5,8.077e+04,1.725e+04,6.273e+04,1.608e+05
64.1,7.951e+04,2.160e+04,6.461e+04,1.657e+05
65.7,7.790e+04,2.416e+04,6.595e+04,1.680e+05
67.2,7.001e+04,2.460e+04,6.408e+04,1.587e+05
68.8,6.956e+04,2.740e+04,6.475e+04,1.617e+05
70.4,7.193e+04,2.904e+04,6.441e+04,1.654e+05
71.9,7.227e+04,2.917e+04,6.118e+04,1.626e+05
73.5,7.189e+04,3.011e+04,5.592e+04,1.579e+05
75.0,7.651e+04,3.443e+04,5.447e+04,1.654e+05
76.6,8.432e+04,4.134e+04,5.950e+04,1.852e+05
78.2,9.153e+04,4.646e+04,6.758e+04,2.056e+05
79.7,1.017e+05,4.603e+04,7.901e+04,2.268e+05
81.3,1.154e+05,4.042e+04,9.152e+04,2.473e+05
82.9,1.274e+05,3.571e+04,1.044e+05,2.675e+05
84.4,1.391e+05,3.358e+04,1.191e+05,2.918e+05
86.0,1.501e+05,3.335e+04,1.377e+05,3.211e+05
87.6,1.613e+05,3.405e+04,1.599e+05,3.553e+05
89.1,1.693e+05,3.428e+04,1.845e+05,3.881e+05
90.7,1.727e+05,3.414e+04,2.110e+05,4.178e+05
92.2,1.698e+05,3.490e+04,2.352e+05,4.398e+05
93.8,1.649e+05,3.884e+04,2.622e+05,4.659e+05
95.4,1.577e+05,4.635e+04,2.928e+05,4.969e+05
96.9,1.459e+05,5.628e+04,3.172e+05,5.193e+05
98.5,1.412e+05,7.102e+04,3.446e+05,5.567e+05
100.1,1.408e+05,9.104e+04,3.743e+05,6.061e+05
101.6,1.453e+05,1.168e+05,4.159e+05,6.780e+05
103.2,1.579e+05,1.381e+05,4.741e+05,7.700e+05
104.8,1.721e+05,1.441e+05,5.384e+05,8.547e+05
106.3,1.803e+05,1.405e+05,6.029e+05,9.236e+05
107.9,1.813e+05,1.375e+05,6.713e+05,9.901e+05
109.4,1.822e+05,1.386e+05,7.567e+05,1.077e+06
111.0,1.753e+05,1.475e+05,8.469e+05,1.170e+06
112.6,1.744e+05,1.826e+05,9.565e+05,1.313e+06
114.1,1.767e+05,1.868e+05,1.011e+06,1.374e+06
115.7,1.714e+05,1.790e+05,1.088e+06,1.438e+06
117.3,1.648e+05,1.769e+05,1.106e+06,1.447e+06
118.8,1.615e+05,1.792e+05,1.084e+06,1.425e+06
120.4,1.580e+05,1.706e+05,1.000e+06,1.329e+06
122.0,1.516e+05,1.481e+05,8.379e+05,1.138e+06
123.5,1.635e+05,1.652e+05,9.035e+05,1.232e+06
125.1,1.788e+05,1.872e+05,9.960e+05,1.362e+06
126.6,1.888e+05,2.059e+05,1.042e+06,1.436e+06
128.2,1.901e+05,2.216e+05,1.059e+06,1.471e+06
129.8,1.911e+05,2.392e+05,1.074e+06,1.504e+06
131.3,1.874e+05,2.472e+05,1.048e+06,1.482e+06
132.9,1.098e+05,1.502e+05,6.197e+05,8.796e+05
134.5,1.890e+04,2.955e+04,1.274e+05,1.758e+05
136.0,8.887e+03,1.764e+04,7.764e+04,1.042e+05
137.6,8.191e+03,1.718e+04,7.446e+04,9.983e+04
139.1,7.814e+03,1.707e+04,7.213e+04,9.702e+04
140.7,7.396e+03,1.690e+04,6.993e+04,9.422e+04
142.3,7.247e+03,1.704e+04,6.814e+04,9.242e+04
143.8,6.777e+03,1.589e+04,6.071e+04,8.338e+04
145.4,6.125e+03,1.397e+04,5.026e+04,7.035e+04
147.0,6.036e+03,1.432e+04,4.874e+04,6.910e+04
148.5,6.276e+03,1.468e+04,4.938e+04,7.034e+04
150.1,6.304e+03,1.437e+04,5.132e+04,7.200e+04
151.7,6.394e+03,1.379e+04,5.377e+04,7.396e+04
153.2,6.678e+03,1.300e+04,5.720e+04,7.688e+04
154.8,7.469e+03,1.221e+04,5.891e+04,7.859e+04
156.3,9.138e+03,1.248e+04,6.050e+04,8.212e+04
157.9,1.278e+04,1.549e+04,6.544e+04,9.372e+04
159.5,1.755e+04,2.095e+04,6.524e+04,1.038e+05
161.0,2.150e+04,2.818e+04,5.957e+04,1.092e+05
162.6,2.324e+04,3.591e+04,5.152e+04,1.107e+05
164.2,2.458e+04,4.379e+04,4.547e+04,1.138e+05
165.7,2.667e+04,5.126e+04,4.260e+04,1.205e+05
167.3,2.788e+04,5.442e+04,3.965e+04,1.219e+05
168.9,2.923e+04,5.547e+04,4.080e+04,1.255e+05
170.4,3.121e+04,5.619e+04,4.454e+04,1.319e+05
172.0,3.140e+04,5.365e+04,4.795e+04,1.330e+05
173.5,3.084e+04,4.967e+04,5.151e+04,1.320e+05
175.1,3.031e+04,4.532e+04,5.357e+04,1.292e+05
176.7,2.903e+04,4.095e+04,5.425e+04,1.242e+05
178.2,2.783e+04,3.733e+04,5.411e+04,1.193e+05
179.8,2.530e+04,3.160e+04,5.065e+04,1.076e+05
181.4,2.205e+04,2.544e+04,4.410e+04,9.159e+04
182.9,2.274e+04,2.532e+04,4.786e+04,9.592e+04
184.5,2.215e+04,2.367e+04,4.664e+04,9.247e+04
186.1,2.173e+04,2.253e+04,4.605e+04,9.030e+04
187.6,2.253e+04,2.169e+04,4.611e+04,9.033e+04
189.2,2.331e+04,2.144e+04,4.637e+04,9.113e+04
190.7,2.409e+04,2.045e+04,4.630e+04,9.084e+04
192.3,2.414e+04,1.871e+04,4.400e+04,8.685e+04
193.9,2.548e+04,1.807e+04,4.336e+04,8.691e+04
195.4,2.728e+04,1.837e+04,4.423e+04,8.989e+04
197.0,2.733e+04,1.829e+04,4.102e+04,8.663e+04
198.6,2.418e+04,1.540e+04,3.557e+04,7.515e+04
